wavelength transmit
115.0 0.00154997
116.0 0.00567335
116.2 0.00705075
116.30000000000001 0.00773268
116.4 0.00844854
116.5 0.0092144
116.60000000000001 0.0100244
116.7 0.0108799
116.80000000000001 0.0117822
116.9 0.0127327
117.0 0.0137328
117.10000000000001 0.0147542
117.2 0.0158244
117.30000000000001 0.0169445
117.4 0.0181159
117.5 0.0193277
117.60000000000001 0.0203793
117.7 0.0214693
117.80000000000001 0.022585
117.9 0.0237538
118.0 0.024949
118.10000000000001 0.0261392
118.2 0.0273516
118.30000000000001 0.0286173
118.4 0.0299056
118.5 0.0312495
118.60000000000001 0.0326164
118.7 0.0340412
118.80000000000001 0.0354894
118.9 0.036998
119.0 0.0385303
119.10000000000001 0.0399957
119.2 0.0414764
119.30000000000001 0.043013
119.4 0.0445649
119.5 0.0461746
119.60000000000001 0.0477995
119.7 0.0494841
119.80000000000001 0.0511838
119.9 0.0529452
120.0 0.054697
120.10000000000001 0.0559387
120.2 0.0571695
120.30000000000001 0.058414
120.4 0.0596987
120.5 0.0609712
120.60000000000001 0.0622575
120.7 0.0635576
120.80000000000001 0.0648718
120.9 0.0661999
121.0 0.0675421
121.10000000000001 0.0689065
121.2 0.0702854
121.30000000000001 0.0716788
121.4 0.0730869
121.5 0.0745097
121.60000000000001 0.0759138
121.7 0.0770649
121.80000000000001 0.0781878
121.9 0.079316
122.0 0.0803788
122.10000000000001 0.0807395
122.2 0.0810301
122.30000000000001 0.0813212
122.4 0.0816129
122.5 0.0819052
122.60000000000001 0.0820903
122.7 0.0822394
122.80000000000001 0.0824244
122.9 0.0826094
123.0 0.082758
123.10000000000001 0.0828925
123.2 0.0829906
123.30000000000001 0.0831249
123.4 0.0832592
123.5 0.0833568
123.60000000000001 0.0834909
123.7 0.0835881
123.80000000000001 0.083722
123.9 0.0838559
124.0 0.0839527
124.10000000000001 0.0840395
124.2 0.0840892
124.30000000000001 0.0841759
124.4 0.0842625
124.5 0.0843118
124.60000000000001 0.0843983
124.7 0.0844847
124.80000000000001 0.0845336
124.9 0.0846198
125.0 0.0846684
125.10000000000001 0.0848233
125.2 0.0849778
125.30000000000001 0.0850941
125.4 0.0852478
125.5 0.0853631
125.60000000000001 0.085516
125.7 0.0856685
125.80000000000001 0.0857823
125.9 0.085934
126.0 0.0860468
126.10000000000001 0.0859914
126.2 0.0859359
126.30000000000001 0.0858418
126.4 0.0857862
126.5 0.085692
126.60000000000001 0.0856364
126.7 0.0855807
126.80000000000001 0.0854864
126.9 0.0854307
127.0 0.0853362
127.10000000000001 0.0852571
127.2 0.0851779
127.30000000000001 0.08506
127.4 0.0849809
127.5 0.0848631
127.60000000000001 0.0847452
127.7 0.0846274
127.80000000000001 0.0845096
127.9 0.0843918
128.0 0.084274
128.1 0.0841032
128.20000000000002 0.083971
128.3 0.083839
128.4 0.083707
128.5 0.083575
128.6 0.0834044
128.70000000000002 0.0832725
128.8 0.0831407
128.9 0.0830089
129.0 0.0828771
129.1 0.0826994
129.20000000000002 0.0825604
129.3 0.0824214
129.4 0.0822825
129.5 0.0821436
129.6 0.0820048
129.70000000000002 0.0818276
129.8 0.0816889
129.9 0.0815503
130.0 0.0814118
130.1 0.0812325
130.20000000000002 0.0810532
130.3 0.0808741
130.4 0.0807335
130.5 0.0805545
130.6 0.0803756
130.70000000000002 0.0801968
130.8 0.0800182
130.9 0.079878
131.0 0.0796994
131.1 0.0795228
131.20000000000002 0.0793462
131.3 0.0791697
131.4 0.0790317
131.5 0.0788554
131.6 0.0786791
131.70000000000002 0.078503
131.8 0.078327
131.9 0.0781893
132.0 0.0780134
132.1 0.0778396
132.20000000000002 0.0776659
132.3 0.0774923
132.4 0.0773569
132.5 0.0771835
132.6 0.0769719
132.70000000000002 0.0767986
132.8 0.0766253
132.9 0.0764522
133.0 0.076241
133.1 0.0760688
133.20000000000002 0.0758968
133.3 0.0757248
133.4 0.0755528
133.5 0.0753429
133.6 0.0751711
133.70000000000002 0.0749995
133.8 0.0748279
133.9 0.0746183
134.0 0.0744469
134.1 0.0742756
134.20000000000002 0.0741043
134.3 0.0738952
134.4 0.0737241
134.5 0.0735531
134.6 0.0733822
134.70000000000002 0.0731734
134.8 0.0730026
134.9 0.072832
135.0 0.0726614
135.1 0.0724529
135.20000000000002 0.0722824
135.3 0.072074
135.4 0.0719037
135.5 0.0716955
135.6 0.0715254
135.70000000000002 0.0713174
135.8 0.0711095
135.9 0.0709396
136.0 0.0707319
136.1 0.0705621
136.20000000000002 0.0703545
136.3 0.0701849
136.4 0.0699775
136.5 0.069808
136.6 0.0696008
136.70000000000002 0.0694315
136.8 0.0692244
136.9 0.0690553
137.0 0.0688484
137.1 0.0686792
137.20000000000002 0.0684723
137.3 0.0683033
137.4 0.0680966
137.5 0.0679277
137.6 0.0677212
137.70000000000002 0.0675148
137.8 0.0673462
137.9 0.06714
138.0 0.0669339
138.1 0.0667651
138.20000000000002 0.0665587
138.3 0.0663524
138.4 0.0661838
138.5 0.0659778
138.6 0.0658094
138.70000000000002 0.0656035
138.8 0.0653977
138.9 0.0652296
139.0 0.065024
139.1 0.0648177
139.20000000000002 0.0646492
139.3 0.0644431
139.4 0.0642372
139.5 0.0640689
139.6 0.0638632
139.70000000000002 0.0636576
139.8 0.0634896
139.9 0.0632842
140.0 0.0630789
140.1 0.0629102
140.20000000000002 0.0627041
140.3 0.0625356
140.4 0.0623138
140.5 0.0620922
140.6 0.0619082
140.70000000000002 0.061687
140.8 0.061466
140.9 0.0612826
141.0 0.0610621
141.1 0.0608405
141.20000000000002 0.0606564
141.3 0.0604353
141.4 0.0602145
141.5 0.060031
141.6 0.0598105
141.70000000000002 0.0595903
141.8 0.0594074
141.9 0.0591877
142.0 0.0590052
142.1 0.0587843
142.20000000000002 0.0585637
142.3 0.0583804
142.4 0.0581602
142.5 0.0579403
142.6 0.0577575
142.70000000000002 0.0575381
142.8 0.0573188
142.9 0.0571367
143.0 0.0569179
143.1 0.0567345
143.20000000000002 0.0565144
143.3 0.0562946
143.4 0.0561117
143.5 0.0558924
143.6 0.05571
143.70000000000002 0.0554911
143.8 0.0552725
143.9 0.0550907
144.0 0.0548726
144.1 0.0546892
144.20000000000002 0.0544695
144.3 0.0542866
144.4 0.0540675
144.5 0.0538485
144.6 0.0536663
144.70000000000002 0.0534479
144.8 0.0532661
144.9 0.0530482
145.0 0.0528305
145.1 0.0526472
145.20000000000002 0.0524279
145.3 0.052245
145.4 0.0520262
145.5 0.0518438
145.6 0.0516255
145.70000000000002 0.0514436
145.8 0.0512258
145.9 0.0510444
146.0 0.0508271
146.1 0.0506438
146.20000000000002 0.0504246
146.3 0.0502418
146.4 0.0500232
146.5 0.0498049
146.6 0.0496228
146.70000000000002 0.049405
146.8 0.0492234
146.9 0.0490062
147.0 0.0488252
147.1 0.0486059
147.20000000000002 0.0484227
147.3 0.048204
147.4 0.0480214
147.5 0.0478033
147.6 0.0476211
147.70000000000002 0.0474036
147.8 0.047222
147.9 0.0470051
148.0 0.0468241
148.1 0.0466404
148.20000000000002 0.0464216
148.3 0.0462385
148.4 0.0460203
148.5 0.0458378
148.6 0.0456202
148.70000000000002 0.0454382
148.8 0.0452213
148.9 0.0450399
149.0 0.0448588
149.1 0.0446397
149.20000000000002 0.0444561
149.3 0.0442377
149.4 0.0440546
149.5 0.0438369
149.6 0.0436545
149.70000000000002 0.0434374
149.8 0.0432556
149.9 0.0430741
150.0 0.04273494
150.1 0.04255209
150.20000000000002 0.042334934
150.3 0.042152674
150.4 0.041970809000000005
150.5 0.041754637000000004
150.6 0.041573362
150.70000000000002 0.041392382000000005
150.8 0.041177293999999996
150.9 0.040996904
151.0 0.040782505
151.1 0.040600512
151.20000000000002 0.040418912999999994
151.3 0.040203304
151.4 0.040022394999999995
151.5 0.039841782000000006
151.6 0.039627257
151.70000000000002 0.039447334
151.8 0.039233498
151.9 0.039054265
152.0 0.038875227
152.1 0.038660979
152.20000000000002 0.038481135
152.3 0.038301687
152.4 0.038088523
152.5 0.037909665200000005
152.6 0.0377312023
152.70000000000002 0.037519223
152.8 0.0373413504
152.9 0.0371638732
153.0 0.0369530784
153.1 0.0367752938
153.20000000000002 0.036597904599999995
153.3 0.0364208109
153.4 0.0362105978
153.5 0.036034294499999994
153.60000000000002 0.0358581866
153.70000000000002 0.035649158199999996
153.8 0.0354737408
153.9 0.035298719
154.0 0.0351240926
154.10000000000002 0.0349162448
154.20000000000002 0.0347420097
154.3 0.0345680701
154.4 0.0343613073
154.5 0.0341881584
154.60000000000002 0.0340152052
154.70000000000002 0.0338426476
154.8 0.0336374651
154.9 0.033465598299999996
155.0 0.0332940272
155.10000000000002 0.0331186509
155.20000000000002 0.032910748100000005
155.3 0.032736162799999996
155.4 0.032561873199999994
155.5 0.032381394699999996
155.60000000000002 0.0322014117
155.70000000000002 0.0320217244
155.8 0.0318424327
155.9 0.031666829099999995
156.0 0.0314884287
156.10000000000002 0.031311222
156.20000000000002 0.031134411
156.3 0.0309578957
156.4 0.0307818761
156.5 0.0306094451
156.60000000000002 0.030434117099999998
156.70000000000002 0.0302591849
156.8 0.0300846485
156.9 0.029910508000000002
157.0 0.0297366633
157.10000000000002 0.0295679043
157.20000000000002 0.0293962483
157.3 0.0292249882
157.4 0.0290540241
157.5 0.0288834559
157.60000000000002 0.02871967
157.70000000000002 0.028552987
157.8 0.0283867002
157.9 0.0282239026
158.0 0.028058307999999997
158.10000000000002 0.0278979989
158.20000000000002 0.0277348928
158.3 0.0275720829
158.4 0.027412762599999998
158.5 0.0272506452
158.60000000000002 0.027088824
158.70000000000002 0.0269305926
158.8 0.026769464
158.9 0.0266117253
159.0 0.0264512893
159.10000000000002 0.026276088399999998
159.20000000000002 0.0261045914
159.3 0.025930416
159.4 0.025759939000000003
159.5 0.025586886
159.60000000000002 0.025414243
159.70000000000002 0.025245291
159.8 0.025073765999999997
159.9 0.024905826000000002
160.0 0.024735316
160.10000000000002 0.02453831
160.20000000000002 0.024342195
160.3 0.024146971
160.4 0.023952633999999997
160.5 0.023759182
160.60000000000002 0.023566713
160.70000000000002 0.023372093
160.8 0.023181391
160.9 0.022992343
161.0 0.022804267
161.10000000000002 0.022539123
161.20000000000002 0.022275754
161.3 0.022014250000000003
161.4 0.02175452
161.5 0.02149665
161.60000000000002 0.02124063
161.70000000000002 0.02098646
161.8 0.02073404
161.9 0.02048068
162.0 0.02023185
162.10000000000002 0.019927030000000002
162.20000000000002 0.01962468
162.3 0.019324809999999998
162.4 0.01902749
162.5 0.01873263
162.60000000000002 0.01844544
162.70000000000002 0.0181607
162.8 0.01787573
162.9 0.01759558
163.0 0.01731796
163.10000000000002 0.01698107
163.20000000000002 0.01664491
163.3 0.01631419
163.4 0.01598664
163.5 0.015661929999999998
163.60000000000002 0.015340369999999999
163.70000000000002 0.01501957
163.8 0.01470401
163.9 0.014391480000000002
164.0 0.014081960000000001
164.10000000000002 0.013763619999999999
164.20000000000002 0.013450460000000001
164.3 0.01314028
164.4 0.01283318
164.5 0.01252915
164.60000000000002 0.01222603
164.70000000000002 0.01192797
164.8 0.01163287
164.9 0.01134081
165.0 0.01105171
165.10000000000002 0.0107948
165.20000000000002 0.010542120000000002
165.3 0.01029184
165.4 0.01004404
165.5 0.009798529999999998
165.60000000000002 0.0095554
165.70000000000002 0.009314649999999999
165.8 0.009076260000000001
165.9 0.008840349999999999
166.0 0.00860671
166.10000000000002 0.00841012
166.20000000000002 0.008215430000000001
166.3 0.008022520000000002
166.4 0.007831499999999998
166.5 0.00764226
166.60000000000002 0.00745499
166.70000000000002 0.007269409999999999
166.8 0.00708581
166.9 0.006903979999999999
167.0 0.006724020000000001
167.10000000000002 0.0065468700000000015
167.20000000000002 0.006371559999999998
167.3 0.0061981
167.4 0.006026280000000002
167.5 0.0058563
167.60000000000002 0.005691399999999999
167.70000000000002 0.005527010000000001
167.8 0.0053653
167.9 0.005204199999999999
168.0 0.0050458
168.10000000000002 0.004928400000000001
168.20000000000002 0.004811299999999999
168.3 0.004696199999999999
168.4 0.0045813
168.5 0.0044683
168.60000000000002 0.004355599999999999
168.70000000000002 0.0042448
168.8 0.0041352
168.9 0.0040257999999999995
169.0 0.003918400000000001
169.10000000000002 0.003811499999999999
169.20000000000002 0.0037067000000000003
169.3 0.0036022
169.4 0.003499499999999999
169.5 0.003397800000000001
169.60000000000002 0.003296499999999999
169.70000000000002 0.003196899999999999
169.8 0.0030977
169.9 0.0030004000000000003
170.0 0.0029032999999999993
170.10000000000002 0.002856300000000001
170.20000000000002 0.0028090000000000007
170.3 0.0027627
170.4 0.0027162
170.5 0.0026700000000000005
170.60000000000002 0.0026247000000000006
170.70000000000002 0.0025792999999999996
170.8 0.0025348999999999997
170.9 0.0024901000000000003
171.0 0.0024457000000000003
171.10000000000002 0.0024025999999999995
171.20000000000002 0.002359199999999999
171.3 0.0023167199999999995
171.4 0.00227398
171.5 0.00223162
171.60000000000002 0.002190300000000001
171.70000000000002 0.0021486100000000005
171.8 0.002107939999999999
171.9 0.002067029999999999
172.0 0.002027020000000001
172.10000000000002 0.001987029999999999
172.20000000000002 0.0019473400000000005
172.3 0.0019085399999999985
172.4 0.0018696400000000005
172.5 0.0018315099999999997
172.60000000000002 0.001794819999999999
172.70000000000002 0.001758280000000001
172.8 0.00172221
172.9 0.0016863899999999994
173.0 0.001651370000000001
173.10000000000002 0.0016163199999999992
173.20000000000002 0.0015816400000000005
173.3 0.0015472100000000003
173.4 0.00151306
173.5 0.00147978
173.60000000000002 0.0014462499999999996
173.70000000000002 0.00141319
173.8 0.0013803900000000004
173.9 0.0013482400000000005
174.0 0.0013161700000000002
174.10000000000002 0.00128435
174.20000000000002 0.0012528999999999995
174.3 0.0012217700000000005
174.4 0.0011913300000000009
174.5 0.0011608599999999997
174.60000000000002 0.0011307
174.70000000000002 0.0011008800000000003
174.8 0.0010713900000000002
174.9 0.0010425699999999996
175.0 0.0010137299999999991
175.10000000000002 0.00100542
175.20000000000002 0.0009974600000000004
175.3 0.0009895300000000006
175.4 0.0009812899999999992
175.5 0.0009733900000000011
175.60000000000002 0.0009655099999999993
175.70000000000002 0.000957340000000001
175.8 0.0009495099999999989
175.9 0.0009413700000000004
176.0 0.0009335899999999998
176.10000000000002 0.0009258400000000007
176.20000000000002 0.0009177699999999992
176.3 0.0009100699999999998
176.4 0.0009020500000000006
176.5 0.0008943799999999993
176.60000000000002 0.0008867299999999996
176.70000000000002 0.00087879
176.8 0.00087118
176.9 0.0008632700000000002
177.0 0.00085571
177.10000000000002 0.0008481900000000004
177.20000000000002 0.0008403600000000001
177.3 0.0008328599999999995
177.4 0.0008254000000000004
177.5 0.0008176400000000006
177.60000000000002 0.0008111499999999992
177.70000000000002 0.0008043799999999995
177.8 0.0007979400000000005
177.9 0.0007915000000000005
178.0 0.0007847799999999997
178.10000000000002 0.0007784000000000003
178.20000000000002 0.00077173
178.3 0.0007653799999999995
178.4 0.0007587399999999999
178.5 0.00075244
178.60000000000002 0.0007461400000000002
178.70000000000002 0.0007395600000000002
178.8 0.00073331
178.9 0.0007267599999999999
179.0 0.0007205399999999995
179.10000000000002 0.0007143499999999999
179.20000000000002 0.0007078700000000002
179.3 0.0007017199999999994
179.4 0.0006952800000000004
179.5 0.0006891599999999994
179.60000000000002 0.00068307
179.70000000000002 0.0006766800000000007
179.8 0.0006706199999999994
179.9 0.0006642799999999997
180.0 0.00065825
180.10000000000002 0.0006553100000000001
180.20000000000002 0.0006523499999999995
180.3 0.0006493599999999999
180.4 0.0006460700000000003
180.5 0.00064306
180.60000000000002 0.0006400399999999997
180.70000000000002 0.0006370000000000004
180.8 0.0006339600000000003
180.9 0.0006308899999999994
181.0 0.0006277999999999995
181.10000000000002 0.0006247099999999997
181.20000000000002 0.0006213
181.3 0.0006181900000000002
181.4 0.0006150499999999998
181.5 0.0006119000000000003
181.60000000000002 0.00060874
181.70000000000002 0.0006055599999999998
181.8 0.0006023699999999996
181.9 0.0005991499999999997
182.0 0.0005956199999999998
182.10000000000002 0.00059238
182.20000000000002 0.0005891400000000001
182.3 0.0005858700000000005
182.4 0.0005826
182.5 0.0005793000000000005
182.60000000000002 0.0005762999999999992
182.70000000000002 0.0005732900000000006
182.8 0.0005702599999999995
182.9 0.0005672199999999994
183.0 0.0005641700000000001
183.10000000000002 0.0005611099999999992
183.20000000000002 0.0005580299999999993
183.3 0.0005549300000000004
183.4 0.0005518300000000005
183.5 0.00054871
183.60000000000002 0.0005455800000000004
183.70000000000002 0.00054243
183.8 0.0005392700000000005
183.9 0.0005360800000000004
184.0 0.0005328900000000003
184.10000000000002 0.0005297000000000001
184.20000000000002 0.0005264800000000002
184.3 0.0005232499999999994
184.4 0.0005199999999999996
184.5 0.0005167500000000007
184.60000000000002 0.0005134799999999993
184.70000000000002 0.0005101900000000006
184.8 0.0005068799999999995
184.9 0.0005035700000000001
185.0 0.0005002299999999999
185.10000000000002 0.0004959400000000003
185.20000000000002 0.0004916499999999997
185.3 0.0004873500000000001
185.4 0.0004830699999999995
185.5 0.00047878999999999977
185.60000000000002 0.00047452
185.70000000000002 0.0004702600000000001
185.8 0.0004659999999999994
185.9 0.00046173999999999955
186.0 0.0004574799999999997
186.10000000000002 0.00045325000000000053
186.20000000000002 0.00044901000000000055
186.3 0.0004447800000000005
186.4 0.0004405499999999996
186.5 0.00043632999999999953
186.60000000000002 0.0004321199999999994
186.70000000000002 0.0004279100000000001
186.8 0.00042369999999999994
186.9 0.0004191899999999994
187.0 0.00041498999999999963
187.10000000000002 0.0004107999999999998
187.20000000000002 0.0004066199999999999
187.3 0.00040245999999999945
187.4 0.0003982800000000004
187.5 0.00039411999999999954
187.60000000000002 0.00039029000000000017
187.70000000000002 0.00038645
187.8 0.0003826300000000001
187.9 0.0003784900000000004
188.0 0.0003746700000000001
188.10000000000002 0.00037085999999999977
188.20000000000002 0.0003670599999999998
188.3 0.00036326000000000023
188.4 0.00035915000000000035
188.5 0.0003553599999999999
188.60000000000002 0.0003515799999999998
188.70000000000002 0.00034781000000000005
188.8 0.00034402999999999994
188.9 0.0003399499999999999
189.0 0.0003361900000000001
189.10000000000002 0.0003324300000000003
189.20000000000002 0.00032868999999999997
189.3 0.00032464000000000017
189.4 0.00032089999999999983
189.5 0.0003171700000000003
189.60000000000002 0.0003134399999999999
189.70000000000002 0.0003095899999999998
189.8 0.00030582000000000005
189.9 0.0003020499999999999
190.0 0.00029828000000000016
190.10000000000002 0.0002947499999999999
190.20000000000002 0.0002912600000000002
190.3 0.00028772999999999993
190.4 0.00028423999999999984
190.5 0.0002807399999999998
190.60000000000002 0.00027722999999999984
190.70000000000002 0.0002737500000000001
190.8 0.0002702500000000001
190.9 0.0002667799999999999
191.0 0.0002632899999999998
191.10000000000002 0.0002598399999999999
191.20000000000002 0.0002563499999999998
191.3 0.0002528799999999996
191.4 0.00024945
191.5 0.00024598000000000024
191.60000000000002 0.00024253999999999986
191.70000000000002 0.00023908999999999996
191.8 0.00023563999999999963
191.9 0.00023222
192.0 0.00022878000000000004
192.10000000000002 0.0002253899999999998
192.20000000000002 0.00022194999999999984
192.3 0.00021856000000000002
192.4 0.00021513999999999995
192.5 0.0002117499999999997
192.60000000000002 0.00020849999999999992
192.70000000000002 0.00020525000000000014
192.8 0.00020202999999999974
192.9 0.00019877999999999996
193.0 0.00019557999999999989
193.10000000000002 0.00019234999999999999
193.20000000000002 0.0001891200000000003
193.3 0.00018592999999999973
193.4 0.00018271
193.5 0.0001795299999999998
193.60000000000002 0.00017632
193.70000000000002 0.00017314999999999974
193.8 0.00016995999999999982
193.9 0.00016676000000000017
194.0 0.00016359999999999986
194.10000000000002 0.0001604200000000001
194.20000000000002 0.00015727999999999988
194.3 0.00015410999999999984
194.4 0.00015097000000000005
194.5 0.00014780000000000001
194.60000000000002 0.00014464999999999986
194.70000000000002 0.00014152999999999995
194.8 0.00013838
194.9 0.00013528
195.0 0.00013216999999999981
195.10000000000002 0.00012932999999999998
195.20000000000002 0.00012651000000000003
195.3 0.00012368999999999987
195.4 0.00012086999999999992
195.5 0.00011803000000000009
195.60000000000002 0.0001152000000000002
195.70000000000002 0.00011236999999999987
195.8 0.00010953000000000004
