wavelength transmission
7200.0 2.8062e-05
7210.0 0.0017202
7220.0 0.0016953
7230.0 0.0021202
7240.0 0.0022305
7250.0 0.0020557
7260.0 0.0021601
7270.0 0.0019177
7280.0 0.0011553
7290.0 0.0016445
7300.0 0.0026889
7310.0 0.0033714
7320.0 0.0035918
7330.0 0.0035219
7340.0 0.0037744
7350.0 0.003684
7360.0 0.0033351
7370.0 0.0033336
7380.0 0.0031728
7390.0 0.0033791
7400.0 0.0036603
7410.0 0.0042789
7420.0 0.0054307
7430.0 0.0071141
7440.0 0.0092516
7450.0 0.01171
7460.0 0.014421
7470.0 0.017429
7480.0 0.021233
7490.0 0.026207
7500.0 0.033257
7510.0 0.043132
7520.0 0.056946
7530.0 0.075682
7540.0 0.1001
7550.0 0.12979
7560.0 0.16432
7570.0 0.20006
7580.0 0.23102
7590.0 0.25482
7600.0 0.26893
7610.0 0.27304
7620.0 0.2685
7630.0 0.25881
7640.0 0.24657
7650.0 0.23555
7660.0 0.22577
7670.0 0.21849
7680.0 0.21245
7690.0 0.20893
7700.0 0.20793
7710.0 0.2082
7720.0 0.20847
7730.0 0.21001
7740.0 0.21156
7750.0 0.21183
7760.0 0.21338
7770.0 0.21494
7780.0 0.21778
7790.0 0.2219
7800.0 0.22604
7810.0 0.23019
7820.0 0.23435
7830.0 0.23852
7840.0 0.24269
7850.0 0.24559
7860.0 0.24849
7870.0 0.2501
7880.0 0.25172
7890.0 0.25333
7900.0 0.25626
7910.0 0.25788
7920.0 0.26082
7930.0 0.26637
7940.0 0.27063
7950.0 0.27621
7960.0 0.28311
7970.0 0.29134
7980.0 0.29959
7990.0 0.30654
8000.0 0.31219
8010.0 0.31654
8020.0 0.3209
8030.0 0.32394
8040.0 0.32699
8050.0 0.32872
8060.0 0.32913
8070.0 0.33087
8080.0 0.33128
8090.0 0.33435
8100.0 0.3361
8110.0 0.33651
8120.0 0.33693
8130.0 0.33601
8140.0 0.33374
8150.0 0.33146
8160.0 0.32784
8170.0 0.32421
8180.0 0.32191
8190.0 0.32095
8200.0 0.31865
8210.0 0.31768
8220.0 0.31536
8230.0 0.31439
8240.0 0.31342
8250.0 0.31108
8260.0 0.30738
8270.0 0.3023
8280.0 0.29721
8290.0 0.29211
8300.0 0.2911
8310.0 0.29145
8320.0 0.2918
8330.0 0.29352
8340.0 0.29387
8350.0 0.29285
8360.0 0.29183
8370.0 0.29218
8380.0 0.2939
8390.0 0.29702
8400.0 0.30014
8410.0 0.30188
8420.0 0.30501
8430.0 0.30815
8440.0 0.3113
8450.0 0.31445
8460.0 0.319
8470.0 0.32356
8480.0 0.32813
8490.0 0.33271
8500.0 0.3373
8510.0 0.3419
8520.0 0.34511
8530.0 0.34832
8540.0 0.35154
8550.0 0.35477
8560.0 0.35801
8570.0 0.35984
8580.0 0.36167
8590.0 0.36209
8600.0 0.36109
8610.0 0.3601
8620.0 0.3591
8630.0 0.35809
8640.0 0.35566
8650.0 0.35465
8660.0 0.35363
8670.0 0.35261
8680.0 0.35159
8690.0 0.34913
8700.0 0.3481
8710.0 0.34563
8720.0 0.3446
8730.0 0.34355
8740.0 0.33963
8750.0 0.33281
8760.0 0.31733
8770.0 0.29025
8780.0 0.253
8790.0 0.2171
8800.0 0.19706
8810.0 0.20309
8820.0 0.22801
8830.0 0.26171
8840.0 0.29112
8850.0 0.31185
8860.0 0.32387
8870.0 0.33154
8880.0 0.3363
8890.0 0.34107
8900.0 0.34585
8910.0 0.35064
8920.0 0.35397
8930.0 0.35731
8940.0 0.35918
8950.0 0.35958
8960.0 0.36146
8970.0 0.36334
8980.0 0.36374
8990.0 0.36563
9000.0 0.36603
9010.0 0.36496
9020.0 0.36388
9030.0 0.36279
9040.0 0.36171
9050.0 0.36062
9060.0 0.36102
9070.0 0.36291
9080.0 0.36331
9090.0 0.3652
9100.0 0.3671
9110.0 0.37051
9120.0 0.37091
9130.0 0.37282
9140.0 0.37323
9150.0 0.37213
9160.0 0.37103
9170.0 0.36842
9180.0 0.36731
9190.0 0.36468
9200.0 0.36356
9210.0 0.36396
9220.0 0.36284
9230.0 0.36323
9240.0 0.3621
9250.0 0.36249
9260.0 0.35984
9270.0 0.36023
9280.0 0.35909
9290.0 0.35947
9300.0 0.36139
9310.0 0.36178
9320.0 0.3637
9330.0 0.36409
9340.0 0.36448
9350.0 0.36641
9360.0 0.3668
9370.0 0.36565
9380.0 0.36604
9390.0 0.36643
9400.0 0.36837
9410.0 0.36876
9420.0 0.37071
9430.0 0.3711
9440.0 0.37305
9450.0 0.375
9460.0 0.37695
9470.0 0.37891
9480.0 0.38243
9490.0 0.38596
9500.0 0.3895
9510.0 0.39304
9520.0 0.39502
9530.0 0.39544
9540.0 0.39585
9550.0 0.39469
9560.0 0.39196
9570.0 0.39079
9580.0 0.38805
9590.0 0.38529
9600.0 0.38253
9610.0 0.37977
9620.0 0.37858
9630.0 0.37739
9640.0 0.37778
9650.0 0.37976
9660.0 0.38174
9670.0 0.38532
9680.0 0.38731
9690.0 0.39091
9700.0 0.39291
9710.0 0.39331
9720.0 0.39372
9730.0 0.39412
9740.0 0.39292
9750.0 0.39172
9760.0 0.39212
9770.0 0.39252
9780.0 0.39293
9790.0 0.39494
9800.0 0.39696
9810.0 0.39898
9820.0 0.401
9830.0 0.40303
9840.0 0.40506
9850.0 0.40709
9860.0 0.40913
9870.0 0.41117
9880.0 0.41321
9890.0 0.41526
9900.0 0.41894
9910.0 0.42263
9920.0 0.42795
9930.0 0.43165
9940.0 0.437
9950.0 0.44071
9960.0 0.44444
9970.0 0.44817
9980.0 0.45026
9990.0 0.454
10000.0 0.4561
10010.0 0.45985
10020.0 0.46526
10030.0 0.46903
10040.0 0.47446
10050.0 0.48155
10060.0 0.48866
10070.0 0.49577
10080.0 0.50124
10090.0 0.50839
10100.0 0.51554
10110.0 0.52105
10120.0 0.52656
10130.0 0.53209
10140.0 0.53595
10150.0 0.53982
10160.0 0.5437
10170.0 0.54758
10180.0 0.54812
10190.0 0.54866
10200.0 0.54752
10210.0 0.54469
10220.0 0.54186
10230.0 0.53902
10240.0 0.53618
10250.0 0.53501
10260.0 0.53216
10270.0 0.5276
10280.0 0.52473
10290.0 0.52016
10300.0 0.51727
10310.0 0.51268
10320.0 0.51148
10330.0 0.51027
10340.0 0.50907
10350.0 0.50956
10360.0 0.51005
10370.0 0.51054
10380.0 0.51104
10390.0 0.50982
10400.0 0.5086
10410.0 0.50737
10420.0 0.50614
10430.0 0.50491
10440.0 0.50196
10450.0 0.50244
10460.0 0.5012
10470.0 0.50167
10480.0 0.50215
10490.0 0.50436
10500.0 0.50657
10510.0 0.50878
10520.0 0.511
10530.0 0.51148
10540.0 0.51371
10550.0 0.51593
10560.0 0.51816
10570.0 0.52039
10580.0 0.52437
10590.0 0.52661
10600.0 0.53059
10610.0 0.53284
10620.0 0.53509
10630.0 0.53735
10640.0 0.5396
10650.0 0.54186
10660.0 0.54413
10670.0 0.5464
10680.0 0.55042
10690.0 0.5527
10700.0 0.55322
10710.0 0.5555
10720.0 0.55602
10730.0 0.55477
10740.0 0.55352
10750.0 0.55226
10760.0 0.551
10770.0 0.54974
10780.0 0.54848
10790.0 0.54721
10800.0 0.54772
10810.0 0.54823
10820.0 0.55051
10830.0 0.55281
10840.0 0.5551
10850.0 0.5574
10860.0 0.5597
10870.0 0.56022
10880.0 0.55894
10890.0 0.55766
10900.0 0.55638
10910.0 0.5533
10920.0 0.55021
10930.0 0.54891
10940.0 0.54581
10950.0 0.5427
10960.0 0.5414
10970.0 0.54008
10980.0 0.53877
10990.0 0.53926
11000.0 0.53975
11010.0 0.54024
11020.0 0.54254
11030.0 0.54485
11040.0 0.54716
11050.0 0.54766
11060.0 0.54816
11070.0 0.54683
11080.0 0.5455
11090.0 0.54599
11100.0 0.54466
11110.0 0.54515
11120.0 0.54381
11130.0 0.54429
11140.0 0.54478
11150.0 0.54344
11160.0 0.54392
11170.0 0.54073
11180.0 0.53938
11190.0 0.53617
11200.0 0.53296
11210.0 0.52975
11220.0 0.52653
11230.0 0.5233
11240.0 0.52191
11250.0 0.52052
11260.0 0.51913
11270.0 0.51959
11280.0 0.52191
11290.0 0.52238
11300.0 0.5247
11310.0 0.52703
11320.0 0.53122
11330.0 0.53355
11340.0 0.53589
11350.0 0.53823
11360.0 0.54058
11370.0 0.54105
11380.0 0.5434
11390.0 0.54388
11400.0 0.54624
11410.0 0.54672
11420.0 0.54907
11430.0 0.55144
11440.0 0.5538
11450.0 0.55617
11460.0 0.55855
11470.0 0.56281
11480.0 0.56519
11490.0 0.56947
11500.0 0.57186
11510.0 0.57614
11520.0 0.58044
11530.0 0.58474
11540.0 0.58905
11550.0 0.59336
11560.0 0.59768
11570.0 0.6001
11580.0 0.60253
11590.0 0.60496
11600.0 0.60548
11610.0 0.60791
11620.0 0.60844
11630.0 0.61088
11640.0 0.6114
11650.0 0.61384
11660.0 0.61437
11670.0 0.61682
11680.0 0.61735
11690.0 0.61788
11700.0 0.61841
11710.0 0.61701
11720.0 0.6156
11730.0 0.61227
11740.0 0.60892
11750.0 0.60751
11760.0 0.60415
11770.0 0.60079
11780.0 0.59936
11790.0 0.59793
11800.0 0.59649
11810.0 0.597
11820.0 0.59555
11830.0 0.59606
11840.0 0.59656
11850.0 0.59511
11860.0 0.59366
11870.0 0.59221
11880.0 0.59075
11890.0 0.58929
11900.0 0.58587
11910.0 0.5844
11920.0 0.58293
11930.0 0.58145
11940.0 0.57997
11950.0 0.58046
11960.0 0.57898
11970.0 0.57946
11980.0 0.57994
11990.0 0.57845
12000.0 0.57894
12010.0 0.57744
12020.0 0.57594
12030.0 0.57444
12040.0 0.57294
12050.0 0.57143
12060.0 0.56793
12070.0 0.56641
12080.0 0.56291
12090.0 0.56337
12100.0 0.56185
12110.0 0.56231
12120.0 0.56277
12130.0 0.56524
12140.0 0.5677
12150.0 0.57017
12160.0 0.57264
12170.0 0.57512
12180.0 0.57759
12190.0 0.58007
12200.0 0.58457
12210.0 0.58505
12220.0 0.58754
12230.0 0.59003
12240.0 0.59052
12250.0 0.59302
12260.0 0.5935
12270.0 0.59398
12280.0 0.59649
12290.0 0.59698
12300.0 0.59949
12310.0 0.602
12320.0 0.60655
12330.0 0.6111
12340.0 0.61566
12350.0 0.62022
12360.0 0.6248
12370.0 0.62938
12380.0 0.63396
12390.0 0.64059
12400.0 0.6452
12410.0 0.65185
12420.0 0.65851
12430.0 0.66313
12440.0 0.66981
12450.0 0.67445
12460.0 0.68114
12470.0 0.6858
12480.0 0.69046
12490.0 0.69307
12500.0 0.69568
12510.0 0.6983
12520.0 0.70092
12530.0 0.69941
12540.0 0.69997
12550.0 0.69846
12560.0 0.69695
12570.0 0.69544
12580.0 0.69392
12590.0 0.6924
12600.0 0.69295
12610.0 0.6935
12620.0 0.69405
12630.0 0.69668
12640.0 0.69931
12650.0 0.70194
12660.0 0.70458
12670.0 0.70493
12680.0 0.70758
12690.0 0.70813
12700.0 0.70869
12710.0 0.70925
12720.0 0.70981
12730.0 0.71058
12740.0 0.71113
12750.0 0.71169
12760.0 0.71435
12770.0 0.71491
12780.0 0.71758
12790.0 0.72024
12800.0 0.72291
12810.0 0.72559
12820.0 0.73038
12830.0 0.73517
12840.0 0.73997
12850.0 0.74478
12860.0 0.75171
12870.0 0.75654
12880.0 0.76136
12890.0 0.76832
12900.0 0.77104
12910.0 0.77589
12920.0 0.77862
12930.0 0.78135
12940.0 0.78196
12950.0 0.78469
12960.0 0.7853
12970.0 0.78377
12980.0 0.78437
12990.0 0.78498
13000.0 0.78558
13010.0 0.78619
13020.0 0.78679
13030.0 0.78954
13040.0 0.79229
13050.0 0.79505
13060.0 0.79781
13070.0 0.80273
13080.0 0.8098
13090.0 0.81473
13100.0 0.82182
13110.0 0.82893
13120.0 0.83604
13130.0 0.84316
13140.0 0.84813
13150.0 0.85527
13160.0 0.86243
13170.0 0.86742
13180.0 0.87242
13190.0 0.87742
13200.0 0.88243
13210.0 0.88745
13220.0 0.8903
13230.0 0.89315
13240.0 0.89601
13250.0 0.89887
13260.0 0.90173
13270.0 0.90459
13280.0 0.90528
13290.0 0.90596
13300.0 0.90664
13310.0 0.90732
13320.0 0.90581
13330.0 0.90429
13340.0 0.90058
13350.0 0.89906
13360.0 0.89753
13370.0 0.8938
13380.0 0.89226
13390.0 0.89073
13400.0 0.88919
13410.0 0.88985
13420.0 0.89051
13430.0 0.89118
13440.0 0.89184
13450.0 0.89472
13460.0 0.89538
13470.0 0.89827
13480.0 0.89893
13490.0 0.90182
13500.0 0.90249
13510.0 0.90316
13520.0 0.90383
13530.0 0.9045
13540.0 0.90516
13550.0 0.90583
13560.0 0.9065
13570.0 0.9094
13580.0 0.91007
13590.0 0.91298
13600.0 0.91365
13610.0 0.91657
13620.0 0.91724
13630.0 0.92016
13640.0 0.92083
13650.0 0.92151
13660.0 0.91993
13670.0 0.92061
13680.0 0.91903
13690.0 0.91745
13700.0 0.91586
13710.0 0.91427
13720.0 0.91268
13730.0 0.91108
13740.0 0.90948
13750.0 0.90788
13760.0 0.90854
13770.0 0.9092
13780.0 0.90986
13790.0 0.91052
13800.0 0.91346
13810.0 0.91412
13820.0 0.91706
13830.0 0.92
13840.0 0.92066
13850.0 0.92133
13860.0 0.92427
13870.0 0.92494
13880.0 0.92561
13890.0 0.92627
13900.0 0.92694
13910.0 0.9299
13920.0 0.93057
13930.0 0.93124
13940.0 0.9342
13950.0 0.93717
13960.0 0.94014
13970.0 0.94311
13980.0 0.94609
13990.0 0.94907
14000.0 0.95436
14010.0 0.95735
14020.0 0.96034
14030.0 0.96333
14040.0 0.96633
14050.0 0.96702
14060.0 0.97002
14070.0 0.97071
14080.0 0.96908
14090.0 0.96977
14100.0 0.96814
14110.0 0.96883
14120.0 0.96719
14130.0 0.96555
14140.0 0.96623
14150.0 0.96691
14160.0 0.96526
14170.0 0.96828
14180.0 0.96896
14190.0 0.97198
14200.0 0.97267
14210.0 0.97569
14220.0 0.97872
14230.0 0.97941
14240.0 0.98244
14250.0 0.98313
14260.0 0.98382
14270.0 0.98216
14280.0 0.9805
14290.0 0.98118
14300.0 0.97952
14310.0 0.97785
14320.0 0.97853
14330.0 0.97685
14340.0 0.97753
14350.0 0.97822
14360.0 0.98126
14370.0 0.98195
14380.0 0.985
14390.0 0.98805
14400.0 0.99111
14410.0 0.9918
14420.0 0.99486
14430.0 0.99793
14440.0 0.99862
14450.0 0.99931
14460.0 1.0
14470.0 0.99831
14480.0 0.99661
14490.0 0.99492
14500.0 0.99322
14510.0 0.99151
14520.0 0.9898
14530.0 0.98809
14540.0 0.98638
14550.0 0.98466
14560.0 0.98294
14570.0 0.98122
14580.0 0.97949
14590.0 0.97776
14600.0 0.97603
14610.0 0.97429
14620.0 0.97255
14630.0 0.9708
14640.0 0.96906
14650.0 0.96731
14660.0 0.96555
14670.0 0.9638
14680.0 0.96204
14690.0 0.96269
14700.0 0.96093
14710.0 0.96158
14720.0 0.95981
14730.0 0.96046
14740.0 0.95869
14750.0 0.95934
14760.0 0.95999
14770.0 0.95821
14780.0 0.95642
14790.0 0.95463
14800.0 0.95284
14810.0 0.95349
14820.0 0.94925
14830.0 0.94745
14840.0 0.94564
14850.0 0.94384
14860.0 0.94202
14870.0 0.94021
14880.0 0.93839
14890.0 0.93657
14900.0 0.93475
14910.0 0.93292
14920.0 0.93109
14930.0 0.92679
14940.0 0.92496
14950.0 0.92311
14960.0 0.9188
14970.0 0.91695
14980.0 0.9151
14990.0 0.91077
15000.0 0.90891
15010.0 0.90705
15020.0 0.90518
15030.0 0.9033
15040.0 0.90143
15050.0 0.89955
15060.0 0.89767
15070.0 0.89578
15080.0 0.89389
15090.0 0.892
15100.0 0.88762
15110.0 0.88572
15120.0 0.88382
15130.0 0.87942
15140.0 0.87501
15150.0 0.8706
15160.0 0.86619
15170.0 0.85926
15180.0 0.85233
15190.0 0.84539
15200.0 0.83844
15210.0 0.83148
15220.0 0.822
15230.0 0.81502
15240.0 0.80551
15250.0 0.79851
15260.0 0.79149
15270.0 0.78196
15280.0 0.77492
15290.0 0.76787
15300.0 0.76082
15310.0 0.75375
15320.0 0.7492
15330.0 0.74212
15340.0 0.73502
15350.0 0.72792
15360.0 0.72081
15370.0 0.71368
15380.0 0.7068
15390.0 0.69966
15400.0 0.69251
15410.0 0.68535
15420.0 0.67817
15430.0 0.67328
15440.0 0.66609
15450.0 0.66143
15460.0 0.65931
15470.0 0.65465
15480.0 0.65252
15490.0 0.65039
15500.0 0.64826
15510.0 0.64868
15520.0 0.64909
15530.0 0.64696
15540.0 0.64737
15550.0 0.64779
15560.0 0.64821
15570.0 0.64862
15580.0 0.6516
15590.0 0.65202
15600.0 0.65244
15610.0 0.65286
15620.0 0.65585
15630.0 0.65627
15640.0 0.65926
15650.0 0.65969
15660.0 0.66269
15670.0 0.66311
15680.0 0.66611
15690.0 0.66654
15700.0 0.66696
15710.0 0.66997
15720.0 0.6704
15730.0 0.67083
15740.0 0.67125
15750.0 0.66909
15760.0 0.66951
15770.0 0.66994
15780.0 0.66776
15790.0 0.66819
15800.0 0.66601
15810.0 0.66383
15820.0 0.66425
15830.0 0.66206
15840.0 0.65987
15850.0 0.65768
15860.0 0.65287
15870.0 0.65067
15880.0 0.64846
15890.0 0.64364
15900.0 0.64142
15910.0 0.63659
15920.0 0.63175
15930.0 0.62952
15940.0 0.62467
15950.0 0.61981
15960.0 0.61757
15970.0 0.61269
15980.0 0.61045
15990.0 0.6082
16000.0 0.60594
16010.0 0.60368
16020.0 0.60142
16030.0 0.59916
16040.0 0.59953
16050.0 0.59726
16060.0 0.59764
16070.0 0.59801
16080.0 0.59838
16090.0 0.59875
16100.0 0.59647
16110.0 0.59684
16120.0 0.59721
16130.0 0.59493
16140.0 0.5953
16150.0 0.59567
16160.0 0.59337
16170.0 0.59108
16180.0 0.59144
16190.0 0.58914
16200.0 0.58684
16210.0 0.58453
16220.0 0.58222
16230.0 0.57991
16240.0 0.57492
16250.0 0.5726
16260.0 0.5676
16270.0 0.56259
16280.0 0.55757
16290.0 0.55255
16300.0 0.54484
16310.0 0.53711
16320.0 0.52965
16330.0 0.52191
16340.0 0.51416
16350.0 0.5037
16360.0 0.49324
16370.0 0.48275
16380.0 0.47226
16390.0 0.46175
16400.0 0.45123
16410.0 0.438
16420.0 0.42745
16430.0 0.41419
16440.0 0.40361
16450.0 0.39031
16460.0 0.377
16470.0 0.36638
16480.0 0.35303
16490.0 0.33967
16500.0 0.32901
16510.0 0.31562
16520.0 0.30493
16530.0 0.2915
16540.0 0.28079
16550.0 0.26777
16560.0 0.25618
16570.0 0.24487
16580.0 0.23407
16590.0 0.22301
16600.0 0.21276
16610.0 0.2028
16620.0 0.19307
16630.0 0.1836
16640.0 0.17442
16650.0 0.16603
16660.0 0.15762
16670.0 0.14948
16680.0 0.14213
16690.0 0.13507
16700.0 0.12825
16710.0 0.12197
16720.0 0.11571
16730.0 0.10997
16740.0 0.1048
16750.0 0.099344
16760.0 0.094712
16770.0 0.09035
16780.0 0.085983
16790.0 0.082164
16800.0 0.078368
16810.0 0.074789
16820.0 0.07151
16830.0 0.068227
16840.0 0.065494
16850.0 0.062731
16860.0 0.059992
16870.0 0.057528
16880.0 0.055033
16890.0 0.05284
16900.0 0.050896
16910.0 0.048699
16920.0 0.047028
16930.0 0.045104
16940.0 0.043457
16950.0 0.042088
16960.0 0.040437
16970.0 0.039064
16980.0 0.037689
16990.0 0.036592
17000.0 0.035494
17010.0 0.034394
17020.0 0.033293
17030.0 0.032191
17040.0 0.03134
17050.0 0.030264
17060.0 0.029411
17070.0 0.028585
17080.0 0.027676
17090.0 0.026809
17100.0 0.02596
17110.0 0.025085
17120.0 0.024189
17130.0 0.023309
17140.0 0.022406
17150.0 0.02145
17160.0 0.020516
17170.0 0.019522
17180.0 0.018498
17190.0 0.017467
17200.0 0.01644
17210.0 0.015382
17220.0 0.014324
17230.0 0.01326
17240.0 0.012223
17250.0 0.011154
17260.0 0.010137
17270.0 0.0091167
17280.0 0.008092
17290.0 0.0071031
17300.0 0.0061957
17310.0 0.0052644
17320.0 0.004429
17330.0 0.0035669
17340.0 0.0027878
17350.0 0.0018864
17360.0 0.0020018
17370.0 0.0012653
17380.0 0.0065935
17390.0 0.0070697
17400.0 0.0071225
17410.0 0.0067224
17420.0 0.0058199
17430.0 0.0045633
17440.0 0.0030411
17450.0 0.0012565
17460.0 0.0032659
17470.0 0.00067398
17480.0 0.001851
17490.0 0.0025351
17500.0 0.0029103
17510.0 0.0039355
17520.0 0.003831
17530.0 0.0031693
17540.0 0.0026594
17550.0 0.0022225
17560.0 0.0018262
17570.0 0.0014555
17580.0 0.0010516
17590.0 0.0012147
17600.0 0.0010998
17610.0 0.0010027
17620.0 0.00091999
17630.0 0.0008523
17640.0 0.00076913
17650.0 0.00063472
17660.0 0.00059495
17670.0 0.00054408
17680.0 0.00049344
17690.0 0.00044449
17700.0 0.0003984
17710.0 0.00034672
17720.0 0.00032387
17730.0 0.00030216
17740.0 0.0002841
17750.0 0.00026824
17760.0 0.00025348
17770.0 0.00023747
17780.0 0.00022385
17790.0 0.00021167
17800.0 0.00020094
17810.0 0.00019182
17820.0 0.00018312
17830.0 0.00017533
17840.0 0.00016823
17850.0 0.00016192
17860.0 0.00015589
17870.0 0.00015054
17880.0 0.00014508
17890.0 0.00014248
17900.0 0.00013979
17910.0 0.00013737
17920.0 0.00013488
17930.0 0.00013268
17940.0 0.00013042
17950.0 0.00012816
17960.0 0.00014402
17970.0 0.0001488
17980.0 0.00015001
17990.0 0.00014938
18000.0 0.00014852
18010.0 0.00014685
18020.0 0.00014619
18030.0 0.00014295
18040.0 0.00013688
18050.0 0.00011873
18060.0 0.00011942
18070.0 0.00011994
18080.0 0.00012018
18090.0 0.00012081
18100.0 0.00012112
18110.0 0.00012181
18120.0 0.00012218
18130.0 0.00012269
18140.0 0.00012285
18150.0 0.00012283
18160.0 0.00012308
18170.0 0.00012329
18180.0 0.0001233
18190.0 0.00014164
18200.0 0.00014855
18210.0 0.00015145
18220.0 0.00015174
18230.0 0.00015072
18240.0 0.00014903
18250.0 0.00014577
18260.0 0.00014146
18270.0 0.00013543
18280.0 0.00012883
18290.0 0.00011896
18300.0 0.00011776
18310.0 0.00011625
18320.0 0.00011445
18330.0 0.00011297
18340.0 0.00011149
18350.0 0.00011004
18360.0 0.00010856
18370.0 0.00010711
18380.0 0.00010565
18390.0 0.00010392
18400.0 0.00010165
18410.0 9.9368e-05
